Water Depth [m],Factor
0.0,0.0
0.01,0.0096
0.02,0.0193
0.03,0.0289
0.04,0.0386
0.05,0.0481
0.06,0.0578
0.07,0.0674
0.08,0.0771
0.09,0.0867
0.1,0.0964
0.11,0.106
0.12,0.1157
0.13,0.1253
0.14,0.135
0.15,0.1446
0.16,0.1543
0.17,0.1639
0.18,0.1736
0.19,0.1832
0.2,0.1929
0.21,0.1977
0.22,0.2024
0.23,0.2072
0.24,0.212
0.25,0.2168
0.26,0.2215
0.27,0.2263
0.28,0.2311
0.29,0.2358
0.3,0.2406
0.31,0.2454
0.32,0.2502
0.33,0.2549
0.34,0.2597
0.35,0.2645
0.36,0.2693
0.37,0.274
0.38,0.2788
0.39,0.2836
0.4,0.2884
0.41,0.2931
0.42,0.2979
0.43,0.3027
0.44,0.3075
0.45,0.3122
0.46,0.317
0.47,0.3218
0.48,0.3266
0.49,0.3313
0.5,0.3361
0.51,0.3409
0.52,0.3456
0.53,0.3504
0.54,0.3552
0.55,0.36
0.56,0.3646
0.57,0.3693
0.58,0.374
0.59,0.3787
0.6,0.3833
0.61,0.388
0.62,0.3926
0.63,0.3973
0.64,0.402
0.65,0.4066
0.66,0.4113
0.67,0.416
0.68,0.4206
0.69,0.4253
0.7,0.43
0.71,0.4327
0.72,0.4355
0.73,0.4383
0.74,0.4411
0.75,0.4439
0.76,0.4467
0.77,0.4495
0.78,0.4523
0.79,0.455
0.8,0.4578
0.81,0.4606
0.82,0.4634
0.83,0.4662
0.84,0.469
0.85,0.4718
0.86,0.4746
0.87,0.4773
0.88,0.4801
0.89,0.4829
0.9,0.4857
0.91,0.4885
0.92,0.4913
0.93,0.4941
0.94,0.4969
0.95,0.4996
0.96,0.5024
0.97,0.5052
0.98,0.508
0.99,0.5108
1,0.5136
1.01,0.5164
1.02,0.5192
1.03,0.5219
1.04,0.5247
1.05,0.5275
1.06,0.5303
1.07,0.533
1.08,0.5358
1.09,0.5385
1.1,0.5413
1.11,0.544
1.12,0.5468
1.13,0.5495
1.14,0.5523
1.15,0.555
1.16,0.5578
1.17,0.5605
1.18,0.5633
1.19,0.566
1.2,0.5688
1.21,0.5708
1.22,0.5728
1.23,0.5748
1.24,0.5768
1.25,0.5788
1.26,0.5808
1.27,0.5828
1.28,0.5848
1.29,0.5868
1.3,0.5888
1.31,0.5908
1.32,0.5928
1.33,0.5948
1.34,0.5968
1.35,0.5988
1.36,0.6008
1.37,0.6028
1.38,0.6048
1.39,0.6068
1.4,0.6088
1.41,0.6108
1.42,0.6128
1.43,0.6148
1.44,0.6168
1.45,0.6188
1.46,0.6208
1.47,0.6228
1.48,0.6248
1.49,0.6268
1.5,0.6288
1.51,0.6308
1.52,0.6328
1.53,0.6348
1.54,0.6368
1.55,0.6388
1.56,0.6408
1.57,0.6427
1.58,0.6447
1.59,0.6467
1.6,0.6487
1.61,0.6506
1.62,0.6526
1.63,0.6546
1.64,0.6566
1.65,0.6585
1.66,0.6605
1.67,0.6625
1.68,0.6645
1.69,0.6664
1.7,0.6684
1.71,0.6704
1.72,0.6724
1.73,0.6743
1.74,0.6763
1.75,0.6783
1.76,0.6803
1.77,0.6822
1.78,0.6842
1.79,0.6862
1.8,0.6882
1.81,0.6901
1.82,0.6921
1.83,0.6941
1.84,0.6961
1.85,0.698
1.86,0.7
1.87,0.702
1.88,0.704
1.89,0.7059
1.9,0.7079
1.91,0.7099
1.92,0.7119
1.93,0.7138
1.94,0.7158
1.95,0.7178
1.96,0.7198
1.97,0.7217
1.98,0.7237
1.99,0.7257
2,0.7277
2.01,0.7296
2.02,0.7316
2.03,0.7336
2.04,0.7356
2.05,0.7375
2.06,0.7395
2.07,0.7415
2.08,0.7434
2.09,0.7454
2.1,0.7474
2.11,0.7493
2.12,0.7513
2.13,0.7533
2.14,0.7552
2.15,0.7572
2.16,0.7591
2.17,0.7611
2.18,0.7631
2.19,0.765
2.2,0.767
2.21,0.7677
2.22,0.7685
2.23,0.7692
2.24,0.77
2.25,0.7707
2.26,0.7715
2.27,0.7722
2.28,0.7729
2.29,0.7737
2.3,0.7744
2.31,0.7752
2.32,0.7759
2.33,0.7767
2.34,0.7774
2.35,0.7781
2.36,0.7789
2.37,0.7796
2.38,0.7804
2.39,0.7811
2.4,0.7819
2.41,0.7826
2.42,0.7833
2.43,0.7841
2.44,0.7848
2.45,0.7856
2.46,0.7863
2.47,0.7871
2.48,0.7878
2.49,0.7886
2.5,0.7893
2.51,0.79
2.52,0.7908
2.53,0.7915
2.54,0.7923
2.55,0.793
2.56,0.7938
2.57,0.7945
2.58,0.7952
2.59,0.796
2.6,0.7967
2.61,0.7975
2.62,0.7982
2.63,0.799
2.64,0.7997
2.65,0.8004
2.66,0.8012
2.67,0.8019
2.68,0.8027
2.69,0.8034
2.7,0.8042
2.71,0.8049
2.72,0.8057
2.73,0.8064
2.74,0.8071
2.75,0.8079
2.76,0.8086
2.77,0.8094
2.78,0.8101
2.79,0.8109
2.8,0.8116
2.81,0.8123
2.82,0.8131
2.83,0.8138
2.84,0.8146
2.85,0.8153
2.86,0.8161
2.87,0.8168
2.88,0.8175
2.89,0.8183
2.9,0.819
2.91,0.8198
2.92,0.8205
2.93,0.8213
2.94,0.822
2.95,0.8228
2.96,0.8235
2.97,0.8242
2.98,0.825
2.99,0.8257
3,0.8265
3.01,0.8272
3.02,0.828
3.03,0.8287
3.04,0.8294
3.05,0.8302
3.06,0.8309
3.07,0.8317
3.08,0.8324
3.09,0.8331
3.1,0.8339
3.11,0.8346
3.12,0.8354
3.13,0.8361
3.14,0.8368
3.15,0.8376
3.16,0.8383
3.17,0.839
3.18,0.8398
3.19,0.8405
3.2,0.8412
3.21,0.842
3.22,0.8427
3.23,0.8435
3.24,0.8442
3.25,0.8449
3.26,0.8457
3.27,0.8464
3.28,0.8471
3.29,0.8479
3.3,0.8486
3.31,0.8494
3.32,0.8501
3.33,0.8508
3.34,0.8516
3.35,0.8523
3.36,0.853
3.37,0.8538
3.38,0.8545
3.39,0.8553
3.4,0.856
3.41,0.8567
3.42,0.8575
3.43,0.8582
3.44,0.8589
3.45,0.8597
3.46,0.8604
3.47,0.8612
3.48,0.8619
3.49,0.8626
3.5,0.8634
3.51,0.8641
3.52,0.8648
3.53,0.8656
3.54,0.8663
3.55,0.8671
3.56,0.8678
3.57,0.8685
3.58,0.8693
3.59,0.87
3.6,0.8707
3.61,0.8715
3.62,0.8722
3.63,0.873
3.64,0.8737
3.65,0.8744
3.66,0.8752
3.67,0.8759
3.68,0.8766
3.69,0.8774
3.7,0.8781
3.71,0.8788
3.72,0.8796
3.73,0.8803
3.74,0.8811
3.75,0.8818
3.76,0.8825
3.77,0.8833
3.78,0.884
3.79,0.8847
3.8,0.8855
3.81,0.8862
3.82,0.887
3.83,0.8877
3.84,0.8884
3.85,0.8892
3.86,0.8899
3.87,0.8906
3.88,0.8914
3.89,0.8921
3.9,0.8929
3.91,0.8936
3.92,0.8943
3.93,0.8951
3.94,0.8958
3.95,0.8965
3.96,0.8973
3.97,0.898
3.98,0.8988
3.99,0.8995
4,0.9002
4.01,0.901
4.02,0.9017
4.03,0.9024
4.04,0.9032
4.05,0.9039
4.06,0.9046
4.07,0.9053
4.08,0.9061
4.09,0.9068
4.1,0.9075
4.11,0.9082
4.12,0.9089
4.13,0.9096
4.14,0.9103
4.15,0.911
4.16,0.9118
4.17,0.9125
4.18,0.9132
4.19,0.9139
4.2,0.9146
4.21,0.915
4.22,0.9155
4.23,0.9159
4.24,0.9163
4.25,0.9168
4.26,0.9172
4.27,0.9176
4.28,0.9181
4.29,0.9185
4.3,0.9189
4.31,0.9194
4.32,0.9198
4.33,0.9202
4.34,0.9206
4.35,0.9211
4.36,0.9215
4.37,0.9219
4.38,0.9224
4.39,0.9228
4.4,0.9232
4.41,0.9237
4.42,0.9241
4.43,0.9245
4.44,0.925
4.45,0.9254
4.46,0.9258
4.47,0.9262
4.48,0.9267
4.49,0.9271
4.5,0.9275
4.51,0.928
4.52,0.9284
4.53,0.9288
4.54,0.9293
4.55,0.9297
4.56,0.9301
4.57,0.9306
4.58,0.931
4.59,0.9314
4.6,0.9319
4.61,0.9323
4.62,0.9327
4.63,0.9331
4.64,0.9336
4.65,0.934
4.66,0.9344
4.67,0.9349
4.68,0.9353
4.69,0.9357
4.7,0.9362
4.71,0.9366
4.72,0.937
4.73,0.9375
4.74,0.9379
4.75,0.9383
4.76,0.9387
4.77,0.9392
4.78,0.9396
4.79,0.94
4.8,0.9405
4.81,0.9409
4.82,0.9413
4.83,0.9418
4.84,0.9422
4.85,0.9426
4.86,0.9431
4.87,0.9435
4.88,0.9439
4.89,0.9444
4.9,0.9448
4.91,0.9452
4.92,0.9456
4.93,0.9461
4.94,0.9465
4.95,0.9469
4.96,0.9474
4.97,0.9478
4.98,0.9482
4.99,0.9487
5,0.9491
5.01,0.9495
5.02,0.95
5.03,0.9504
5.04,0.9508
5.05,0.9512
5.06,0.9517
5.07,0.9521
5.08,0.9525
5.09,0.953
5.1,0.9534
5.11,0.9538
5.12,0.9543
5.13,0.9547
5.14,0.9551
5.15,0.9556
5.16,0.956
5.17,0.9564
5.18,0.9569
5.19,0.9573
5.2,0.9577
5.21,0.9581
5.22,0.9586
5.23,0.959
5.24,0.9594
5.25,0.9599
5.26,0.9603
5.27,0.9607
5.28,0.9612
5.29,0.9616
5.3,0.962
5.31,0.9625
5.32,0.9629
5.33,0.9633
5.34,0.9638
5.35,0.9642
5.36,0.9646
5.37,0.965
5.38,0.9655
5.39,0.9659
5.4,0.9663
5.41,0.9668
5.42,0.9672
5.43,0.9676
5.44,0.9681
5.45,0.9685
5.46,0.9689
5.47,0.9694
5.48,0.9698
5.49,0.9702
5.5,0.9706
5.51,0.9711
5.52,0.9715
5.53,0.9719
5.54,0.9724
5.55,0.9728
5.56,0.9732
5.57,0.9737
5.58,0.9741
5.59,0.9745
5.6,0.975
5.61,0.9754
5.62,0.9758
5.63,0.9763
5.64,0.9767
5.65,0.9771
5.66,0.9775
5.67,0.978
5.68,0.9784
5.69,0.9788
5.7,0.9793
5.71,0.9797
5.72,0.9801
5.73,0.9806
5.74,0.981
5.75,0.9814
5.76,0.9819
5.77,0.9823
5.78,0.9827
5.79,0.9831
5.8,0.9836
5.81,0.984
5.82,0.9844
5.83,0.9849
5.84,0.9853
5.85,0.9857
5.86,0.9862
5.87,0.9866
5.88,0.987
5.89,0.9875
5.9,0.9879
5.91,0.9883
5.92,0.9888
5.93,0.9892
5.94,0.9896
5.95,0.99
5.96,0.9905
5.97,0.9909
5.98,0.9913
5.99,0.9918
6,0.9922
6.01,0.9926
6.02,0.9931
6.03,0.9935
6.04,0.9939
6.05,0.9944
6.06,0.9947
6.07,0.9951
6.08,0.9955
6.09,0.9959
6.1,0.9962
6.11,0.9966
6.12,0.997
6.13,0.9974
6.14,0.9977
6.15,0.9981
6.16,0.9985
6.17,0.9989
6.18,0.9992
6.19,0.9996
6.2,1
6.21,1
6.22,1
6.23,1
6.24,1
6.25,1
6.26,1
6.27,1
6.28,1
6.29,1
6.3,1
6.31,1
6.32,1
6.33,1
6.34,1
6.35,1
6.36,1
6.37,1
6.38,1
6.39,1
6.4,1
6.41,1
6.42,1
6.43,1
6.44,1
6.45,1
6.46,1
6.47,1
6.48,1
6.49,1
6.5,1
6.51,1
6.52,1
6.53,1
6.54,1
6.55,1
6.56,1
6.57,1
6.58,1
6.59,1
6.6,1
6.61,1
6.62,1
6.63,1
6.64,1
6.65,1
6.66,1
6.67,1
6.68,1
6.69,1
6.7,1
6.71,1
6.72,1
6.73,1
6.74,1
6.75,1
6.76,1
6.77,1
6.78,1
6.79,1
6.8,1
6.81,1
6.82,1
6.83,1
6.84,1
6.85,1
6.86,1
6.87,1
6.88,1
6.89,1
6.9,1
6.91,1
6.92,1
6.93,1
6.94,1
6.95,1
6.96,1
6.97,1
6.98,1
6.99,1
7,1
7.01,1
7.02,1
7.03,1
7.04,1
7.05,1
7.06,1
7.07,1
7.08,1
7.09,1
7.1,1
7.11,1
7.12,1
7.13,1
7.14,1
7.15,1
7.16,1
7.17,1
7.18,1
7.19,1
7.2,1
7.21,1
7.22,1
7.23,1
7.24,1
7.25,1
7.26,1
7.27,1
7.28,1
7.29,1
7.3,1
7.31,1
7.32,1
7.33,1
7.34,1
7.35,1
7.36,1
7.37,1
7.38,1
7.39,1
7.4,1
7.41,1
7.42,1
7.43,1
7.44,1
7.45,1
7.46,1
7.47,1
7.48,1
7.49,1
7.5,1
7.51,1
7.52,1
7.53,1
7.54,1
7.55,1
7.56,1
7.57,1
7.58,1
7.59,1
7.6,1
7.61,1
7.62,1
7.63,1
7.64,1
7.65,1
7.66,1
7.67,1
7.68,1
7.69,1
7.7,1
7.71,1
7.72,1
7.73,1
7.74,1
7.75,1
7.76,1
7.77,1
7.78,1
7.79,1
7.8,1
7.81,1
7.82,1
7.83,1
7.84,1
7.85,1
7.86,1
7.87,1
7.88,1
7.89,1
7.9,1
7.91,1
7.92,1
7.93,1
7.94,1
7.95,1
7.96,1
7.97,1
7.98,1
7.99,1
8,1
8.01,1
8.02,1
8.03,1
8.04,1
8.05,1
8.06,1
8.07,1
8.08,1
8.09,1
8.1,1
8.11,1
8.12,1
8.13,1
8.14,1
8.15,1
8.16,1
8.17,1
8.18,1
8.19,1
8.2,1
8.21,1
8.22,1
8.23,1
8.24,1
8.25,1
8.26,1
8.27,1
8.28,1
8.29,1
8.3,1
8.31,1
8.32,1
8.33,1
8.34,1
8.35,1
8.36,1
8.37,1
8.38,1
8.39,1
8.4,1
8.41,1
8.42,1
8.43,1
8.44,1
8.45,1
8.46,1
8.47,1
8.48,1
8.49,1
8.5,1
8.51,1
8.52,1
8.53,1
8.54,1
8.55,1
8.56,1
8.57,1
8.58,1
8.59,1
8.6,1
8.61,1
8.62,1
8.63,1
8.64,1
8.65,1
8.66,1
8.67,1
8.68,1
8.69,1
8.7,1
8.71,1
8.72,1
8.73,1
8.74,1
8.75,1
8.76,1
8.77,1
8.78,1
8.79,1
8.8,1
8.81,1
8.82,1
8.83,1
8.84,1
8.85,1
8.86,1
8.87,1
8.88,1
8.89,1
8.9,1
8.91,1
8.92,1
8.93,1
8.94,1
8.95,1
8.96,1
8.97,1
8.98,1
8.99,1
9,1
9.01,1
9.02,1
9.03,1
9.04,1
9.05,1
9.06,1
9.07,1
9.08,1
9.09,1
9.1,1
9.11,1
9.12,1
9.13,1
9.14,1
9.15,1
9.16,1
9.17,1
9.18,1
9.19,1
9.2,1
9.21,1
9.22,1
9.23,1
9.24,1
9.25,1
9.26,1
9.27,1
9.28,1
9.29,1
9.3,1
9.31,1
9.32,1
9.33,1
9.34,1
9.35,1
9.36,1
9.37,1
9.38,1
9.39,1
9.4,1
9.41,1
9.42,1
9.43,1
9.44,1
9.45,1
9.46,1
9.47,1
9.48,1
9.49,1
9.5,1
9.51,1
9.52,1
9.53,1
9.54,1
9.55,1
9.56,1
9.57,1
9.58,1
9.59,1
9.6,1
9.61,1
9.62,1
9.63,1
9.64,1
9.65,1
9.66,1
9.67,1
9.68,1
9.69,1
9.7,1
9.71,1
9.72,1
9.73,1
9.74,1
9.75,1
9.76,1
9.77,1
9.78,1
9.79,1
9.8,1
9.81,1
9.82,1
9.83,1
9.84,1
9.85,1
9.86,1
9.87,1
9.88,1
9.89,1
9.9,1
9.91,1
9.92,1
9.93,1
9.94,1
9.95,1
9.96,1
9.97,1
9.98,1
9.99,1
10,1
